# SAXS profile: number of points = 501, q_min = 0.0, q_max = 0.5, delta_q = 0.001
#    q    intensity    error
0.00000000 3280255.00000000 590.44592285
0.00100000 3280024.00000000 1377.61010742
0.00200000 3279331.25000000 1623.26904297
0.00300000 3278177.25000000 2753.66894531
0.00400000 3276562.00000000 3194.64819336
0.00500000 3274486.50000000 3536.44531250
0.00600000 3271951.25000000 3779.10375977
0.00700000 3268957.75000000 4315.02441406
0.00800000 3265506.25000000 5290.12011719
0.00900000 3261600.00000000 4892.39990234
0.01000000 3257238.00000000 6986.77539062
0.01100000 3252424.25000000 6439.79980469
0.01200000 3247159.25000000 6965.15673828
0.01300000 3241446.25000000 8168.44482422
0.01400000 3235286.00000000 8735.27246094
0.01500000 3228683.00000000 10848.37500000
0.01600000 3221637.00000000 10679.72753906
0.01700000 3214154.00000000 10413.85937500
0.01800000 3206235.00000000 9137.76953125
0.01900000 3197883.50000000 14390.47558594
0.02000000 3189102.75000000 17077.64453125
0.02100000 3179898.00000000 11543.02929688
0.02200000 3170268.50000000 14218.65429688
0.02300000 3160222.25000000 13652.16015625
0.02400000 3149761.00000000 16536.24609375
0.02500000 3138891.00000000 15914.17773438
0.02600000 3127614.25000000 15200.20507812
0.02700000 3115936.75000000 17013.01562500
0.02800000 3103860.25000000 14851.97167969
0.02900000 3091393.25000000 19475.77734375
0.03000000 3078538.75000000 17178.24609375
0.03100000 3065301.25000000 17656.13476562
0.03200000 3051685.50000000 18127.01367188
0.03300000 3037700.75000000 23238.41015625
0.03400000 3023346.25000000 20634.33984375
0.03500000 3008632.25000000 21120.59765625
0.03600000 2993561.25000000 16614.26367188
0.03700000 2978141.25000000 20370.48632812
0.03800000 2962377.00000000 25994.85742188
0.03900000 2946276.25000000 19445.42382812
0.04000000 2929840.50000000 23424.07421875
0.04100000 2913081.00000000 22022.89257812
0.04200000 2896002.25000000 24282.97851562
0.04300000 2878608.75000000 28498.22851562
0.04400000 2860910.25000000 23173.37304688
0.04500000 2842912.25000000 25500.92382812
0.04600000 2824618.75000000 21904.91796875
0.04700000 2806040.00000000 28284.88281250
0.04800000 2787180.25000000 32777.23828125
0.04900000 2768050.00000000 20760.37500000
0.05000000 2748651.50000000 37848.93359375
0.05100000 2728996.50000000 21286.17187500
0.05200000 2709086.25000000 25844.68359375
0.05300000 2688933.25000000 23958.39453125
0.05400000 2668542.75000000 37426.31250000
0.05500000 2647922.00000000 33363.81640625
0.05600000 2627077.00000000 31446.11328125
0.05700000 2606019.50000000 29474.08007812
0.05800000 2584751.00000000 25162.55078125
0.05900000 2563281.25000000 25376.48437500
0.06000000 2541619.50000000 27906.98242188
0.06100000 2519772.25000000 28120.65820312
0.06200000 2497746.25000000 23603.70117188
0.06300000 2475552.00000000 26141.83007812
0.06400000 2453188.75000000 28702.31054688
0.06500000 2430673.25000000 38501.86328125
0.06600000 2408009.50000000 29040.59375000
0.06700000 2385202.75000000 31627.78906250
0.06800000 2362264.75000000 31784.27343750
0.06900000 2339202.25000000 24561.62304688
0.07000000 2316019.00000000 36998.40234375
0.07100000 2292725.75000000 29713.72656250
0.07200000 2269329.00000000 27334.06640625
0.07300000 2245838.25000000 27421.68554688
0.07400000 2222259.00000000 37500.62109375
0.07500000 2198599.25000000 25064.03320312
0.07600000 2174863.25000000 27631.63671875
0.07700000 2151064.50000000 30200.94531250
0.07800000 2127205.00000000 30248.85546875
0.07900000 2103293.25000000 27763.47265625
0.08000000 2079338.75000000 27790.36132812
0.08100000 2055348.87500000 37921.18750000
0.08200000 2031325.62500000 30348.00585938
0.08300000 2007280.50000000 32879.25390625
0.08400000 1983219.50000000 27814.65234375
0.08500000 1959149.75000000 32854.94140625
0.08600000 1935077.37500000 30303.31250000
0.08700000 1911011.37500000 27747.88476562
0.08800000 1886953.37500000 37786.24218750
0.08900000 1862915.25000000 30179.22851562
0.09000000 1838902.62500000 35141.42968750
0.09100000 1814920.12500000 35064.25781250
0.09200000 1790973.75000000 39974.53515625
0.09300000 1767075.00000000 27407.33398438
0.09400000 1743220.50000000 34777.24609375
0.09500000 1719423.87500000 34663.58593750
0.09600000 1695689.50000000 29606.73828125
0.09700000 1672025.25000000 27036.64843750
0.09800000 1648435.37500000 24479.26562500
0.09900000 1624925.87500000 31686.05468750
0.10000000 1601498.87500000 36394.06250000
0.10100000 1578162.62500000 26560.47851562
0.10200000 1554925.12500000 26425.95117188
0.10300000 1531787.50000000 23895.88476562
0.10400000 1508756.50000000 28515.49804688
0.10500000 1485843.25000000 44887.32421875
0.10600000 1463038.75000000 30526.30273438
0.10700000 1440361.37500000 32667.39648438
0.10800000 1417809.25000000 30135.53710938
0.10900000 1395388.62500000 25326.30273438
0.11000000 1373105.00000000 22862.19726562
0.11100000 1350961.50000000 22696.15429688
0.11200000 1328961.75000000 29283.67382812
0.11300000 1307111.50000000 24586.76757812
0.11400000 1285415.50000000 24390.75976562
0.11500000 1263876.00000000 30788.01953125
0.11600000 1242498.12500000 21805.84179688
0.11700000 1221286.25000000 25940.11914062
0.11800000 1200238.00000000 36421.22265625
0.11900000 1179363.00000000 21228.53515625
0.12000000 1158662.00000000 23132.68554688
0.12100000 1138143.12500000 22910.82031250
0.12200000 1117803.00000000 35059.89062500
0.12300000 1097648.37500000 20416.25976562
0.12400000 1077680.37500000 20206.50585938
0.12500000 1057900.00000000 27992.03320312
0.12600000 1038317.81250000 21757.94921875
0.12700000 1018926.93750000 21519.73828125
0.12800001 999733.93750000 21279.33789062
0.12899999 980742.68750000 19124.48046875
0.13000000 961952.68750000 20792.60742188
0.13100000 943364.06250000 29885.77343750
0.13200000 924983.31250000 20298.75781250
0.13300000 906811.25000000 18226.90625000
0.13400000 888846.37500000 28798.62304688
0.13500001 871094.18750000 23101.41796875
0.13600001 853553.00000000 26310.77343750
0.13699999 836226.00000000 25964.81640625
0.13800000 819113.37500000 27325.62109375
0.13900000 802217.37500000 23585.19140625
0.14000000 785538.87500000 21598.39062500
0.14100000 769077.87500000 19657.63085938
0.14200000 752835.31250000 19377.98242188
0.14300001 736812.43750000 17506.66406250
0.14399999 721006.50000000 21954.64648438
0.14500000 705424.87500000 18538.56445312
0.14600000 690063.31250000 15215.89550781
0.14700000 674923.93750000 16481.64257812
0.14800000 660002.25000000 22126.57617188
0.14900000 645303.12500000 24682.84570312
0.15000001 630824.81250000 15717.00097656
0.15099999 616568.43750000 16869.31250000
0.15200000 602533.93750000 20742.23046875
0.15300000 588720.18750000 14959.37988281
0.15400000 575123.93750000 16045.95800781
0.15500000 561748.25000000 18402.87304688
0.15600000 548590.68750000 14211.24218750
0.15700001 535654.87500000 19042.53125000
0.15800001 522932.53125000 14966.33007812
0.15899999 510430.28125000 13475.35937500
0.16000000 498140.46875000 13233.10156250
0.16100000 486071.25000000 15354.99023438
0.16200000 474211.84375000 12753.92773438
0.16300000 462566.81250000 17068.71484375
0.16400000 451133.50000000 18981.44335938
0.16500001 439910.84375000 13144.53613281
0.16599999 428897.53125000 19338.98828125
0.16700000 418090.84375000 12643.06640625
0.16800000 407490.09375000 11362.86132812
0.16900000 397096.59375000 11138.55957031
0.17000000 386905.09375000 16870.99609375
0.17100000 376915.75000000 9724.42675781
0.17200001 367125.78125000 11432.29687500
0.17299999 357535.06250000 9331.66503906
0.17399999 348141.87500000 10052.59667969
0.17500000 338942.68750000 10737.70410156
0.17600000 329934.34375000 10511.70800781
0.17700000 321120.40625000 10288.69824219
0.17800000 312493.68750000 9229.50097656
0.17900001 304054.56250000 13956.10449219
0.18000001 295801.78125000 8834.12011719
0.18099999 287733.81250000 8640.64648438
0.18200000 279843.40625000 10754.38183594
0.18300000 272133.28125000 8261.96679688
0.18400000 264600.00000000 10279.70996094
0.18500000 257243.03125000 7894.78857422
0.18600000 250057.18750000 11923.97753906
0.18700001 243041.89062500 8909.91601562
0.18799999 236194.10937500 7365.71289062
0.18900000 229515.62500000 6541.19531250
0.19000000 222994.70312500 6388.79833984
0.19100000 216641.12500000 6239.26416016
0.19200000 210442.50000000 8529.23437500
0.19300000 204404.25000000 8327.42968750
0.19400001 198517.82812500 7548.64062500
0.19499999 192784.76562500 6801.44628906
0.19599999 187201.23437500 7744.51464844
0.19700000 181765.00000000 6478.10449219
0.19800000 176474.37500000 5794.53613281
0.19900000 171326.28125000 7709.68261719
0.20000000 166317.87500000 5014.48388672
0.20100001 161448.50000000 5381.07861328
0.20200001 156713.81250000 4771.93554688
0.20299999 152114.25000000 4654.69580078
0.20400000 147644.31250000 4994.06884766
0.20500000 143303.45312500 7084.92285156
0.20600000 139088.28125000 6046.16748047
0.20700000 134997.85937500 5896.70654297
0.20800000 131027.89843750 5340.04199219
0.20900001 127181.21093750 6009.31250000
0.20999999 123447.82031250 4688.54785156
0.21100000 119830.14062500 4953.77783203
0.21200000 116324.89843750 5203.21240234
0.21300000 112929.28906250 5075.04248047
0.21400000 109642.77343750 4950.37109375
0.21500000 106463.01562500 4484.22216797
0.21600001 103384.86718750 3365.17749023
0.21699999 100409.46093750 3611.72827148
0.21799999 97532.28906250 5126.29687500
0.21900000 94750.92187500 4064.81445312
0.22000000 92065.52343750 3357.16918945
0.22100000 89473.96875000 3277.43139648
0.22200000 86972.35937500 2909.22534180
0.22300000 84558.42968750 2841.16333008
0.22400001 82230.63281250 4162.92578125
0.22499999 79990.03906250 2711.66235352
0.22600000 77828.79687500 3180.08447266
0.22700000 75749.85937500 3367.83862305
0.22800000 73749.10937500 3546.59472656
0.22900000 71823.71875000 2725.71020508
0.23000000 69973.78125000 3151.96899414
0.23100001 68197.39843750 3559.90429688
0.23199999 66490.02343750 2556.20898438
0.23300000 64852.75390625 2503.96484375
0.23400000 63283.25390625 2676.88159180
0.23500000 61776.01953125 2405.55810547
0.23600000 60335.24218750 2359.40966797
0.23700000 58955.64062500 3157.07470703
0.23800001 57636.41406250 2686.14501953
0.23899999 56374.52734375 2638.32788086
0.23999999 55169.67578125 2991.57568359
0.24100000 54021.43359375 2549.27148438
0.24200000 52926.11718750 2700.81982422
0.24300000 51882.21484375 3038.22241211
0.24400000 50889.31250000 2057.20043945
0.24500000 49944.98437500 2395.86083984
0.24600001 49048.67968750 2180.70434570
0.24699999 48197.54296875 1792.94860840
0.24800000 47391.32812500 2124.07934570
0.24900000 46627.55468750 2447.94653320
0.25000000 45906.05078125 1728.36279297
0.25099999 45223.87890625 2051.35498047
0.25200000 44583.16406250 2030.31738281
0.25299999 43978.78515625 2178.26904297
0.25400001 43411.07812500 2158.61596680
0.25500000 42877.94531250 1646.51306152
0.25600001 42379.39843750 2287.21630859
0.25700000 41912.98046875 2595.25170898
0.25799999 41478.50390625 2256.01562500
0.25900000 41074.67968750 2082.48632812
0.25999999 40700.83593750 1912.12524414
0.26100001 40353.24609375 1744.47082520
0.26199999 40034.70312500 1737.30590820
0.26300001 39740.47265625 1731.09509277
0.26400000 39472.36328125 1569.02648926
0.26499999 39228.16796875 1878.24462891
0.26600000 39007.21093750 1718.46264648
0.26699999 38808.37890625 2340.14526367
0.26800001 38631.19531250 1714.64562988
0.26899999 38473.11328125 2181.42553711
0.27000001 38335.71484375 1714.18151855
0.27100000 38215.87109375 2182.89062500
0.27200001 38115.61328125 2029.08483887
0.27300000 38030.38281250 1875.65844727
0.27399999 37959.83593750 2192.18041992
0.27500001 37907.67578125 2040.19116211
0.27599999 37867.55078125 2045.41564941
0.27700001 37842.89453125 1893.65856934
0.27800000 37830.70312500 1899.85791016
0.27900001 37830.77343750 2065.56030273
0.28000000 37842.84765625 2073.59887695
0.28099999 37865.15234375 1761.86547852
0.28200001 37899.19531250 2252.34912109
0.28299999 37942.21093750 1616.33813477
0.28400001 37994.11328125 2598.79736328
0.28500000 38055.36718750 1959.09033203
0.28600001 38123.59375000 1805.34289551
0.28700000 38199.57031250 1815.24353027
0.28799999 38282.56640625 1825.50415039
0.28900000 38372.30859375 2336.87353516
0.28999999 38467.14453125 2350.72705078
0.29100001 38568.37500000 1858.22436523
0.29200000 38674.07031250 2889.53320312
0.29300001 38784.17968750 2223.49707031
0.29400000 38897.64453125 2065.46484375
0.29499999 39015.32812500 2078.73657227
0.29600000 39135.94140625 2092.20751953
0.29699999 39258.74609375 2281.32568359
0.29800001 39384.41015625 2472.94726562
0.29899999 39512.33593750 1778.05505371
0.30000001 39641.16406250 2684.69799805
0.30100000 39771.74218750 1981.82592773
0.30199999 39902.36718750 2538.98754883
0.30300000 40034.37109375 1825.56738281
0.30399999 40166.42968750 2388.89843750
0.30500001 40297.85937500 2034.63891602
0.30599999 40428.83593750 2420.27221680
0.30700001 40559.93750000 1873.86914062
0.30800000 40689.61328125 2074.55981445
0.30899999 40817.96484375 2657.24926758
0.31000000 40945.09765625 2101.09765625
0.31099999 41069.88281250 2114.27758789
0.31200001 41193.26953125 2320.82885742
0.31299999 41314.53125000 2529.68872070
0.31400001 41433.52343750 2545.05419922
0.31500000 41549.35937500 2166.38354492
0.31600001 41662.49609375 2971.57763672
0.31700000 41773.12890625 2789.60961914
0.31799999 41879.71875000 2404.73339844
0.31900001 41984.14843750 2418.28710938
0.31999999 42084.54687500 2634.28222656
0.32100001 42181.12890625 2648.55322266
0.32200000 42274.55468750 2253.02246094
0.32300001 42363.10937500 2676.50146484
0.32400000 42447.55078125 2690.11352539
0.32499999 42528.40625000 2287.60278320
0.32600001 42604.38671875 2298.71972656
0.32699999 42676.12500000 2099.66528320
0.32800001 42744.08984375 2742.24707031
0.32900000 42806.20312500 2966.46972656
0.33000001 42865.30078125 2341.08837891
0.33100000 42917.33203125 2564.73974609
0.33199999 42966.43359375 2360.79052734
0.33300000 43009.70703125 3016.70092773
0.33399999 43048.29296875 3244.76489258
0.33500001 43081.58593750 2605.57446289
0.33600000 43110.05859375 2397.13476562
0.33700001 43132.57031250 2842.86791992
0.33800000 43150.98046875 3071.91821289
0.33899999 43163.19531250 2421.45507812
0.34000000 43170.02343750 2428.96142578
0.34099999 43171.90234375 2214.71850586
0.34200001 43169.59765625 3331.61376953
0.34299999 43160.30468750 2895.19311523
0.34400001 43147.38281250 2679.45263672
0.34500000 43128.03125000 2686.01367188
0.34599999 43104.16015625 2467.92871094
0.34700000 43073.91015625 2698.14965820
0.34799999 43038.90234375 2478.39501953
0.34900001 42998.87109375 2257.44067383
0.34999999 42953.26562500 2713.78735352
0.35100001 42902.94921875 3397.91357422
0.35200000 42846.11718750 2722.44238281
0.35299999 42784.81250000 2726.24804688
0.35400000 42718.44140625 2957.18408203
0.35499999 42647.22265625 2732.83398438
0.35600001 42570.54296875 2507.61791992
0.35699999 42488.85546875 3422.47729492
0.35800001 42402.34375000 3881.72265625
0.35900000 42310.84765625 2970.22143555
0.36000001 42215.03125000 3200.32153320
0.36100000 42114.00781250 2972.82788086
0.36199999 42009.12500000 2973.61572266
0.36300001 41898.62890625 3660.26416016
0.36399999 41783.23046875 2973.92138672
0.36500001 41663.17968750 3430.96289062
0.36600000 41539.88671875 2744.12500000
0.36700001 41411.20703125 3657.43798828
0.36800000 41279.77343750 2741.80249023
0.36899999 41143.74609375 2968.52124023
0.37000000 41002.13671875 2738.12280273
0.37099999 40856.64062500 3647.68090820
0.37200001 40708.79687500 2277.65722656
0.37300000 40556.15625000 2730.24047852
0.37400001 40400.38281250 3181.53027344
0.37500000 40240.97265625 2950.46801758
0.37599999 40077.68359375 3172.95019531
0.37700000 39910.95703125 3168.13183594
0.37799999 39741.51562500 3614.88818359
0.37900001 39568.90625000 2932.05590820
0.38000000 39392.50390625 2251.28149414
0.38100001 39213.48828125 2921.01293945
0.38200000 39031.26562500 2466.58081055
0.38299999 38846.31640625 2908.81201172
0.38400000 38659.50000000 2679.10327148
0.38499999 38469.07421875 2672.83129883
0.38600001 38277.63281250 3999.62988281
0.38699999 38082.44140625 2438.03784180
0.38800001 37885.10546875 2873.77465820
0.38900000 37686.17187500 2425.10522461
0.38999999 37485.49609375 3737.49121094
0.39100000 37282.50781250 2411.43261719
0.39199999 37078.69140625 3497.26196289
0.39300001 36871.73046875 2397.03125000
0.39399999 36665.35156250 2824.14868164
0.39500001 36456.02734375 2815.13452148
0.39600000 36245.58203125 2805.95166016
0.39700001 36034.00390625 2366.35302734
0.39800000 35821.76171875 2572.71899414
0.39899999 35608.58203125 2777.46923828
0.40000001 35394.30859375 2767.65795898
0.40099999 35178.77343750 2333.40795898
0.40200001 34963.85546875 2536.27807617
0.40300000 34747.58203125 2316.27368164
0.40400001 34531.00000000 3146.63745117
0.40500000 34314.61718750 2298.73632812
0.40599999 34098.09765625 2498.02661133
0.40700001 33880.97265625 3110.27343750
0.40799999 33664.06250000 2478.34814453
0.40900001 33447.37890625 2879.81933594
0.41000000 33231.76562500 2048.73828125
0.41100001 33015.44921875 2652.46118164
0.41200000 32799.70703125 2438.33032227
0.41299999 32585.18945312 2428.24829102
0.41400000 32371.00390625 2619.62353516
0.41499999 32157.46484375 2407.95092773
0.41600001 31944.14843750 2197.91723633
0.41700000 31732.79882812 2785.50512695
0.41800001 31523.07226562 2575.59277344
0.41900000 31312.10156250 2367.19482422
0.41999999 31104.45898438 2749.94506836
0.42100000 30897.31250000 2151.37988281
0.42199999 30692.11523438 2142.15625000
0.42300001 30487.61328125 2520.71582031
0.42399999 30284.69335938 2509.84399414
0.42500001 30083.86523438 3460.24633789
0.42600000 29884.05468750 2296.88842773
0.42699999 29686.93750000 2287.08154297
0.42800000 29490.77148438 3036.36987305
0.42899999 29297.39062500 2267.61791992
0.43000001 29105.58593750 2258.01147461
0.43099999 28915.01367188 2435.80078125
0.43200001 28727.38476562 1865.84362793
0.43300000 28541.37304688 2229.65209961
0.43399999 28357.95507812 2035.39221191
0.43500000 28176.23828125 2211.27124023
0.43599999 27998.42187500 2752.94482422
0.43700001 27820.94921875 2010.61999512
0.43799999 27646.08789062 3094.84130859
0.43900001 27474.56250000 1994.65332031
0.44000000 27305.02539062 1986.85021973
0.44100001 27138.15039062 2698.88916016
0.44200000 26974.10937500 2330.15844727
0.44299999 26811.98046875 1964.24560547
0.44400001 26653.08007812 2490.73046875
0.44499999 26495.45312500 3367.83691406
0.44600001 26341.17773438 2296.02880859
0.44700000 26190.27734375 2463.98120117
0.44800001 26041.24023438 2630.81640625
0.44900000 25895.63476562 2272.34204102
0.44999999 25752.96484375 2613.28198242
0.45100001 25611.76562500 2083.77319336
0.45199999 25474.08398438 2250.25317383
0.45300001 25338.98632812 2760.93603516
0.45400000 25206.78906250 2064.43603516
0.45500001 25077.42578125 2058.35522461
0.45600000 24950.52539062 1881.39440918
0.45699999 24826.66601562 1876.15112305
0.45800000 24705.30468750 2211.24829102
0.45899999 24586.63867188 1696.47802734
0.46000001 24471.67187500 2369.10253906
0.46100000 24357.97851562 1856.80871582
0.46200001 24248.39648438 1852.45629883
0.46300000 24140.73828125 2016.23449707
0.46399999 24035.92968750 2514.75903320
0.46500000 23934.15429688 1840.29711914
0.46599999 23834.79296875 1836.58996582
0.46700001 23737.72265625 2166.30468750
0.46799999 23644.64062500 2328.76074219
0.46900001 23552.68945312 1826.51110840
0.47000000 23463.79687500 1989.26074219
0.47099999 23377.73046875 1655.14331055
0.47200000 23294.39843750 1818.01135254
0.47299999 23213.72656250 1650.49597168
0.47400001 23134.50976562 2472.50073242
0.47499999 23058.86718750 2140.32397461
0.47600001 22985.88085938 2302.49584961
0.47700000 22913.88867188 2135.80346680
0.47799999 22845.25000000 1805.57421875
0.47900000 22779.36132812 1640.11401367
0.47999999 22714.93945312 2130.54760742
0.48100001 22654.27734375 2620.64672852
0.48199999 22593.55468750 2127.97387695
0.48300001 22536.26953125 1963.35986328
